1,1,1,-1.410,-8.323,101.328,40.0,-4.671,-14.713,77.953
2,1,2,-0.290,-48.333,102.833,39.6,-1.552,-39.677,76.325
3,1,5,9.743,-38.356,103.370,28.4,11.213,-38.636,82.345
4,1,6,19.671,-28.486,101.358,41.5,14.858,-30.921,80.151
5,1,24,-10.947,-37.840,103.221,28.6,-12.262,-38.569,82.365
6,1,25,-21.296,-28.597,100.886,41.5,-15.320,-30.783,80.092
7,2,2,-0.326,-83.307,84.537,39.8,-1.254,-67.821,61.218
8,2,3,-0.902,-106.856,51.854,40.0,-4.456,-89.396,39.305
9,2,34,-6.488,-101.914,60.295,23.4,-11.833,-86.085,46.386
10,2,35,-13.981,-97.445,66.227,27.6,-14.084,-80.397,55.735
11,2,42,5.362,-101.972,60.336,23.3,11.524,-85.895,46.518
12,2,43,13.840,-96.971,67.014,27.8,14.413,-79.923,57.000
13,3,3,0.235,-119.377,15.006,40.0,1.528,-100.044,9.648
14,3,60,-7.796,-120.846,-18.281,27.9,-12.929,-105.241,-10.290
15,3,61,-16.247,-119.978,-10.561,33.5,-16.878,-106.634,-7.090
16,3,65,7.167,-121.043,-16.923,28.0,12.525,-105.253,-9.951
17,3,66,16.811,-119.964,-9.959,33.8,16.125,-106.726,-6.823
18,4,1,-1.336,29.319,87.715,40.0,-2.579,20.282,66.815
19,4,4,-0.290,62.446,65.502,39.9,-1.179,47.357,49.691
20,4,12,8.462,38.970,82.486,26.4,8.063,28.668,64.138
21,4,13,15.725,48.120,75.048,33.9,11.267,36.866,60.005
22,4,19,-10.182,38.512,82.448,26.8,-8.070,28.848,64.102
23,4,20,-16.742,47.487,75.175,34.2,-11.946,37.010,59.803
24,5,4,0.503,83.642,30.972,39.8,1.885,65.954,22.792
25,5,15,12.693,87.379,8.526,26.3,12.218,73.310,7.229
26,5,16,9.386,86.174,19.881,25.2,10.130,71.607,15.491
27,5,17,-10.321,86.037,20.022,25.5,-10.909,71.700,15.351
28,5,18,-12.602,87.564,7.010,26.6,-12.818,73.312,5.649
29,6,1,10.415,0.590,97.958,27.9,12.310,-2.376,76.879
30,6,5,19.671,-28.486,101.358,39.7,14.858,-30.921,80.151
31,6,6,29.539,-18.993,96.811,28.4,25.546,-19.323,77.267
32,6,7,38.293,-8.702,90.549,40.9,31.084,-15.028,75.239
33,6,12,19.210,10.508,92.377,39.7,16.895,2.364,74.671
34,7,1,19.210,10.508,92.377,39.1,16.895,2.364,74.671
35,7,6,39.466,-8.668,89.879,39.2,32.130,-14.188,74.384
36,7,7,46.489,0.964,82.367,27.3,39.164,-4.751,65.340
37,7,8,52.668,10.049,73.551,39.1,41.944,7.176,61.422
38,7,12,27.785,20.724,85.241,27.1,23.234,13.115,69.726
39,7,13,35.597,27.938,77.896,39.1,25.944,20.504,64.674
40,8,7,54.099,8.521,72.904,38.1,42.735,6.064,60.616
41,8,8,58.482,16.946,63.814,26.3,47.358,13.870,54.121
42,8,10,62.345,25.351,52.747,37.1,51.272,18.579,45.495
43,8,12,34.600,28.685,78.072,37.0,25.449,21.003,64.771
44,8,13,41.752,36.566,68.494,25.9,35.970,27.039,55.682
45,8,14,47.017,42.857,58.589,38.0,38.755,33.311,47.952
46,9,8,62.345,25.351,52.747,37.0,51.272,18.579,45.495
47,9,9,65.544,39.305,30.891,34.3,53.892,33.084,27.902
48,9,10,64.935,32.249,41.407,25.1,53.628,26.254,35.997
49,9,13,45.456,44.576,58.596,34.1,37.036,34.938,47.655
50,9,14,49.405,50.446,48.341,24.0,39.851,40.850,39.903
51,9,32,51.722,55.842,37.284,36.0,42.704,47.458,29.109
52,10,9,65.416,45.086,20.262,23.5,53.648,38.705,17.267
53,10,10,65.544,39.305,30.891,35.5,53.892,33.084,27.902
54,10,11,63.972,50.892,11.180,30.4,52.369,44.855,7.578
55,10,14,50.922,57.139,36.712,30.4,42.383,47.882,29.020
56,10,32,51.474,62.126,26.148,21.9,41.759,53.982,20.596
57,10,33,61.610,56.307,3.586,43.3,50.295,49.753,1.517
58,11,4,7.006,68.854,57.966,24.1,7.596,55.070,45.385
59,11,12,17.011,45.943,76.163,39.6,12.404,36.391,59.944
60,11,13,24.171,54.365,66.494,24.6,19.211,43.132,51.574
61,11,14,28.565,60.588,57.848,30.3,21.701,48.505,46.629
62,11,16,18.015,74.041,46.130,41.5,11.861,59.842,38.066
63,12,4,12.473,75.102,47.265,25.3,9.712,60.330,38.338
64,12,13,28.565,60.588,57.848,38.6,21.701,48.505,46.629
65,12,14,32.995,66.922,46.331,22.8,26.922,55.450,36.045
66,12,15,25.047,81.622,24.173,41.4,20.827,67.386,20.109
67,12,16,22.737,77.801,35.771,18.8,19.687,64.419,27.229
68,12,32,35.001,71.617,36.545,25.5,26.843,60.108,29.416
69,13,14,39.082,70.466,33.195,38.5,30.604,58.670,25.598
70,13,15,29.745,82.605,9.714,17.6,24.653,70.703,7.698
71,13,16,27.198,81.389,22.178,19.7,22.556,67.343,18.034
72,13,32,40.370,74.171,21.991,17.3,32.923,62.559,16.519
73,14,11,56.981,63.920,-9.199,42.2,46.190,55.842,-7.868
74,14,15,34.109,81.556,-5.795,27.1,27.667,67.941,-5.782
75,14,32,43.946,74.155,6.285,44.6,38.273,63.865,3.982
76,14,33,53.403,69.453,-16.610,29.8,42.580,59.801,-12.246
77,14,58,55.266,69.246,-27.839,38.3,42.269,58.022,-15.183
78,15,15,5.741,88.839,-3.384,42.3,8.389,73.305,-1.757
79,15,17,-17.136,86.594,8.572,39.5,-15.805,73.030,6.796
80,15,18,-19.195,86.979,-3.914,18.1,-16.396,72.552,-2.893
81,15,23,-31.427,82.919,-5.848,35.6,-25.613,69.899,-3.620
82,16,15,20.246,86.678,-3.705,18.0,17.017,72.629,-2.213
83,16,16,16.892,86.623,8.831,39.3,14.585,73.090,7.107
84,16,18,-4.702,88.855,-2.996,42.4,-8.097,73.123,-2.104
85,17,4,-7.756,69.659,56.736,24.3,-8.641,56.083,44.405
86,17,17,-18.032,73.924,46.318,41.5,-11.991,59.917,38.177
87,17,19,-17.043,46.222,75.958,39.7,-12.444,36.940,59.652
88,17,20,-25.118,53.046,67.091,25.0,-20.029,41.401,52.603
89,17,21,-28.983,60.732,57.392,30.5,-21.693,48.601,46.655
90,18,4,-12.183,75.112,47.396,25.6,-9.643,60.359,38.431
91,18,17,-21.978,77.992,35.943,18.9,-18.388,64.610,27.052
92,18,18,-26.659,80.971,24.302,41.6,-22.056,67.174,19.558
93,18,20,-29.870,60.913,56.558,38.8,-22.123,48.757,46.122
94,18,21,-33.693,66.538,46.214,23.1,-27.441,54.851,36.694
95,18,22,-35.887,71.719,35.187,25.7,-27.141,60.929,28.125
96,19,1,-11.271,0.875,97.717,28.5,-13.040,-2.208,77.091
97,19,19,-20.628,9.595,92.269,39.8,-18.259,1.817,74.952
98,19,24,-21.296,-28.597,100.886,39.5,-15.320,-30.783,80.092
99,19,25,-31.393,-19.205,96.059,28.5,-27.358,-19.157,77.161
100,19,26,-40.154,-9.559,89.734,40.9,-32.240,-15.335,74.841
101,20,1,-20.864,11.156,91.588,39.2,-19.271,3.418,73.949
102,20,19,-28.998,19.817,85.092,27.4,-23.493,13.126,69.742
103,20,20,-35.782,28.278,77.617,39.3,-26.656,20.186,64.321
104,20,25,-40.154,-9.559,89.734,39.3,-32.240,-15.335,74.841
105,20,26,-47.866,-0.586,81.981,27.8,-40.981,-8.199,67.333
106,20,27,-54.114,9.184,72.543,39.3,-42.912,6.476,60.597
107,21,19,-35.782,28.278,77.617,37.1,-26.656,20.186,64.321
108,21,20,-42.402,36.422,68.077,26.1,-36.694,26.623,55.652
109,21,21,-47.323,43.354,57.828,38.4,-38.195,33.703,47.828
110,21,26,-53.840,7.504,73.629,38.5,-42.323,4.969,61.243
111,21,27,-59.641,16.226,62.751,26.8,-48.473,12.868,53.327
112,21,28,-63.055,24.380,52.346,37.3,-52.004,17.925,45.506
113,22,20,-46.176,44.127,58.220,34.3,-37.616,34.819,47.036
114,22,21,-50.235,50.399,47.172,24.4,-40.402,41.060,39.007
115,22,22,-52.464,55.357,36.599,36.4,-43.183,47.079,29.360
116,22,27,-63.055,24.380,52.346,37.5,-52.004,17.925,45.506
117,22,28,-65.822,31.050,40.822,25.4,-54.204,26.160,35.065
118,22,29,-66.852,37.616,30.000,34.4,-54.241,32.675,27.158
119,23,21,-51.477,56.842,36.105,30.6,-42.567,48.133,28.884
120,23,22,-51.915,61.632,26.087,22.2,-41.992,53.638,20.583
121,23,23,-53.521,64.642,11.503,35.7,-44.096,56.373,9.813
122,23,28,-66.852,37.616,30.000,36.0,-54.241,32.675,27.158
123,23,29,-66.307,43.852,19.896,23.9,-53.961,37.706,17.005
124,23,30,-64.669,50.082,10.259,30.6,-53.335,43.995,6.828
125,23,31,-62.764,54.832,2.341,43.5,-51.817,47.726,1.741
126,24,18,-42.831,75.174,4.321,38.5,-37.574,64.425,2.595
127,24,22,-51.170,66.058,15.473,25.8,-42.778,57.661,13.135
128,24,23,-51.474,68.442,1.858,16.7,-43.361,60.285,1.020
129,24,29,-65.531,48.674,10.473,33.7,-53.759,42.621,7.336
130,24,30,-62.398,55.667,0.549,22.7,-50.954,48.751,0.011
131,24,31,-59.733,60.228,-6.941,26.0,-48.921,52.650,-5.774
132,25,9,64.816,49.986,9.799,33.2,53.558,43.869,6.123
133,25,11,62.248,55.701,1.772,22.4,51.147,48.567,0.862
134,25,15,41.294,76.295,4.268,37.9,36.475,64.706,2.840
135,25,32,49.880,67.061,16.679,25.7,42.227,58.039,12.754
136,25,33,60.021,59.750,-6.072,25.8,49.148,52.498,-5.330
137,26,2,-9.028,-74.928,90.765,26.7,-12.549,-63.272,70.999
138,26,24,-18.652,-67.572,93.670,39.3,-15.639,-56.317,76.655
139,26,34,-14.574,-96.211,67.984,39.7,-14.254,-79.726,57.828
140,26,35,-22.296,-90.485,73.272,25.2,-19.183,-77.082,61.065
141,26,36,-32.990,-83.299,76.950,33.1,-26.025,-72.397,62.161
142,27,2,-18.652,-67.572,93.670,37.5,-15.639,-56.317,76.655
143,27,24,-28.727,-57.876,94.966,27.8,-20.635,-50.523,77.440
144,27,25,-39.931,-48.809,92.417,38.5,-32.542,-46.900,73.303
145,27,35,-32.990,-83.299,76.950,38.9,-26.025,-72.397,62.161
146,27,36,-42.361,-75.330,78.655,26.3,-32.455,-63.395,66.440
147,27,37,-52.151,-67.827,76.106,37.3,-40.382,-58.769,61.340
148,28,24,-39.931,-48.809,92.417,40.2,-32.542,-46.900,73.303
149,28,25,-48.385,-37.767,88.469,27.5,-39.935,-35.003,71.122
150,28,26,-57.954,-29.020,80.896,37.9,-47.788,-28.645,66.721
151,28,36,-52.675,-66.030,76.752,37.5,-40.646,-57.342,62.631
152,28,37,-61.365,-56.683,72.432,26.8,-51.458,-52.016,56.217
153,28,38,-68.942,-47.992,66.170,40.3,-57.103,-44.508,55.598
154,29,25,-57.954,-29.020,80.896,41.6,-47.788,-28.645,66.721
155,29,26,-64.738,-19.440,72.871,27.6,-53.292,-21.553,61.670
156,29,27,-70.412,-11.266,63.305,37.3,-58.718,-15.443,54.051
157,29,37,-69.869,-48.290,64.719,36.6,-57.916,-44.819,54.425
158,29,38,-76.299,-38.328,57.527,26.4,-63.868,-35.138,49.477
159,29,39,-81.296,-29.938,47.577,41.4,-67.441,-29.991,42.944
160,30,26,-70.412,-11.266,63.305,40.7,-58.718,-15.443,54.051
161,30,27,-74.694,-2.920,52.036,26.6,-60.362,-5.799,44.721
162,30,28,-76.586,4.953,41.556,35.9,-63.316,2.164,36.487
163,30,38,-81.296,-29.938,47.577,35.2,-67.441,-29.991,42.944
164,30,39,-83.438,-21.376,36.334,26.2,-70.062,-22.745,33.417
165,30,40,-83.983,-13.102,24.839,41.1,-70.250,-13.096,23.803
166,31,27,-76.586,4.953,41.556,39.1,-63.316,2.164,36.487
167,31,28,-77.546,12.845,29.365,25.4,-64.233,8.279,27.591
168,31,29,-77.263,19.355,19.490,34.1,-62.327,14.450,18.532
169,31,39,-84.234,-14.172,23.838,34.0,-70.319,-13.897,22.399
170,31,40,-83.572,-5.425,12.990,25.5,-69.470,-8.395,15.325
171,31,41,-82.508,1.353,3.316,39.6,-66.575,-4.536,3.628
172,32,28,-77.263,19.355,19.490,37.2,-62.327,14.450,18.532
173,32,29,-76.183,25.740,8.473,24.4,-60.958,23.587,10.174
174,32,30,-74.616,31.778,-1.972,32.0,-58.767,30.180,0.356
175,32,40,-82.508,1.353,3.316,32.3,-66.575,-4.536,3.628
176,32,41,-80.720,7.517,-8.311,25.2,-64.835,2.240,-6.408
177,32,51,-79.177,14.110,-18.966,39.6,-63.904,3.826,-21.162
178,33,29,-74.616,31.778,-1.972,34.7,-58.767,30.180,0.356
179,33,30,-72.558,37.835,-12.270,24.1,-56.274,36.203,-8.052
180,33,31,-70.872,42.094,-18.697,30.5,-54.890,38.372,-13.228
181,33,41,-79.177,14.110,-18.966,30.5,-63.904,3.826,-21.162
182,33,51,-78.409,21.477,-28.772,26.0,-60.434,8.103,-27.116
183,33,57,-77.903,27.878,-39.839,41.8,-56.660,11.779,-33.949
184,33,59,-71.222,41.997,-29.324,34.9,-52.762,39.396,-17.275
185,34,2,8.174,-76.161,89.983,26.7,12.234,-65.195,70.113
186,34,5,19.178,-67.288,93.679,39.3,16.401,-56.104,76.630
187,34,42,14.725,-95.925,68.393,39.9,14.336,-79.320,58.964
188,34,43,21.343,-89.781,74.502,25.0,18.178,-76.492,61.870
189,34,44,32.209,-83.082,77.548,33.3,26.232,-72.264,62.110
190,35,2,18.222,-68.152,93.458,37.6,15.572,-56.401,76.591
191,35,5,28.094,-57.652,95.274,27.6,19.970,-51.194,77.559
192,35,6,39.105,-47.598,93.076,38.8,31.817,-47.529,73.629
193,35,43,32.209,-83.082,77.548,39.1,26.232,-72.264,62.110
194,35,44,41.603,-75.439,79.077,26.5,32.454,-63.442,66.431
195,35,45,51.471,-67.497,76.977,37.6,39.602,-58.796,62.616
196,36,5,39.105,-47.598,93.076,40.4,31.817,-47.529,73.629
197,36,6,48.202,-38.233,88.576,27.6,39.074,-34.680,71.725
198,36,7,56.588,-27.555,81.943,38.4,47.016,-28.848,67.238
199,36,44,52.902,-65.923,76.613,37.6,41.326,-57.674,61.673
200,36,45,60.342,-56.589,73.630,26.7,49.044,-51.280,57.640
201,36,46,68.428,-48.140,66.832,40.4,56.593,-44.787,56.048
202,37,6,56.588,-27.555,81.943,41.7,47.016,-28.848,67.238
203,37,7,64.400,-17.996,72.830,27.7,53.268,-20.456,61.270
204,37,8,69.612,-10.083,63.870,37.3,57.929,-14.996,54.544
205,37,45,69.414,-46.179,66.167,37.1,57.130,-43.800,55.731
206,37,46,76.481,-37.231,57.555,26.6,63.742,-34.615,49.996
207,37,47,81.157,-27.887,47.956,41.3,67.457,-28.445,42.928
208,38,7,69.612,-10.083,63.870,40.7,57.929,-14.996,54.544
209,38,8,73.972,-0.795,52.160,26.2,60.019,-2.904,45.435
210,38,10,76.532,5.706,41.093,35.4,63.362,2.662,36.183
211,38,46,81.157,-27.887,47.956,35.8,67.457,-28.445,42.928
212,38,47,83.100,-19.321,36.904,26.3,69.321,-21.482,34.478
213,38,48,83.770,-12.016,25.035,41.0,70.194,-12.767,24.034
214,39,8,75.604,7.687,41.945,39.0,63.001,4.342,36.164
215,39,9,77.096,20.247,19.016,33.6,62.400,15.275,17.862
216,39,10,77.195,13.555,30.150,25.1,64.362,8.004,27.577
217,39,47,83.770,-12.016,25.035,34.0,70.194,-12.767,24.034
218,39,48,83.348,-3.942,14.055,25.3,69.466,-7.656,15.419
219,39,49,82.134,3.264,3.101,39.5,65.728,-2.426,3.432
220,40,9,75.815,27.139,8.104,24.2,60.591,24.893,9.714
221,40,10,77.096,20.247,19.016,37.0,62.400,15.275,17.862
222,40,11,74.459,32.303,-1.883,31.5,58.953,30.256,0.927
223,40,48,82.413,1.944,2.875,31.7,66.257,-3.622,3.324
224,40,49,80.273,9.652,-7.290,24.9,64.445,3.497,-6.261
225,40,50,78.809,15.873,-17.656,39.6,60.541,6.952,-16.937
226,41,9,74.004,33.607,-1.299,34.5,58.831,31.270,1.457
227,41,11,72.192,38.705,-11.824,23.8,55.963,37.095,-8.382
228,41,33,69.895,44.294,-19.072,29.9,54.571,39.518,-13.586
229,41,49,78.809,15.873,-17.656,30.0,60.541,6.952,-16.937
230,41,50,78.371,21.585,-28.316,25.9,61.006,7.303,-26.683
231,41,56,77.739,28.161,-38.838,41.9,56.735,11.744,-33.756
232,41,58,70.890,42.704,-27.989,34.7,52.991,39.490,-16.833
233,42,40,-84.832,-15.988,-15.660,41.1,-71.629,-17.765,-15.030
234,42,41,-83.267,-9.414,-26.790,25.5,-68.542,-11.303,-22.674
235,42,51,-82.038,-3.052,-37.977,30.5,-65.768,-6.272,-29.588
236,43,3,-7.237,-117.638,22.484,28.0,-10.231,-104.519,16.920
237,43,34,-13.480,-114.325,31.784,42.5,-13.764,-100.852,24.957
238,43,60,-14.340,-120.197,-9.669,40.2,-14.800,-106.774,-6.241
239,43,61,-23.721,-118.579,-1.792,29.9,-20.944,-106.492,-1.639
240,43,62,-29.924,-116.047,7.257,31.2,-24.585,-104.946,5.313
241,43,63,-36.548,-112.793,10.657,42.3,-29.720,-101.686,7.243
242,44,3,-13.446,-114.888,30.148,28.3,-14.098,-101.313,23.878
243,44,34,-19.514,-110.571,38.977,31.0,-17.106,-96.503,30.945
244,44,35,-26.907,-105.879,45.509,41.7,-22.132,-92.221,38.950
245,44,61,-29.755,-116.256,5.702,39.9,-24.976,-104.782,4.793
246,44,62,-36.329,-112.236,14.972,28.4,-29.512,-100.653,11.706
247,44,63,-41.790,-108.904,17.967,33.1,-33.631,-97.337,14.528
248,44,64,-46.206,-104.817,24.245,40.6,-38.482,-91.827,20.447
249,45,34,-30.395,-102.458,50.570,40.6,-24.397,-89.619,42.720
250,45,35,-38.204,-96.734,55.787,27.4,-33.205,-82.978,45.738
251,45,36,-48.085,-88.913,58.514,24.4,-39.669,-77.773,48.956
252,45,37,-57.948,-80.970,56.682,36.1,-48.415,-70.840,48.132
253,45,63,-52.767,-98.882,28.969,38.8,-43.015,-87.345,25.640
254,45,64,-56.354,-93.841,34.897,27.5,-46.258,-83.172,30.805
255,46,36,-58.050,-81.957,55.199,33.1,-48.048,-71.471,47.537
256,46,37,-65.536,-73.898,52.613,25.5,-54.107,-65.571,45.691
257,46,38,-73.781,-64.631,44.408,35.2,-61.055,-59.063,39.470
258,46,52,-69.807,-79.980,25.486,33.3,-57.080,-72.433,23.941
259,46,63,-61.165,-91.583,26.228,40.5,-50.069,-81.284,23.854
260,46,64,-64.132,-86.417,31.612,22.5,-53.084,-76.757,28.390
261,47,37,-73.187,-65.517,45.026,37.4,-60.697,-59.719,39.840
262,47,38,-78.988,-55.258,37.668,25.6,-65.933,-50.526,34.093
263,47,39,-82.620,-47.594,26.329,33.6,-68.886,-45.219,24.934
264,47,52,-75.679,-70.007,18.003,23.3,-62.904,-62.237,15.307
265,47,53,-78.868,-62.462,8.691,37.9,-66.666,-57.736,8.039
266,47,64,-70.879,-78.248,25.123,32.8,-57.759,-71.506,23.343
267,48,38,-82.159,-48.612,28.390,40.4,-68.751,-45.704,27.587
268,48,39,-85.163,-38.275,17.253,25.0,-70.808,-37.727,15.247
269,48,40,-86.300,-31.563,5.936,32.0,-72.174,-30.936,6.294
270,48,52,-78.868,-62.462,8.691,32.2,-66.666,-57.736,8.039
271,48,53,-81.990,-53.521,-1.422,23.3,-70.006,-50.301,-0.675
272,49,39,-86.300,-31.563,5.936,42.0,-72.174,-30.936,6.294
273,49,40,-85.957,-23.452,-4.828,25.7,-71.327,-24.793,-6.124
274,49,41,-84.832,-15.988,-15.660,31.0,-71.629,-17.765,-15.030
275,49,53,-84.127,-46.233,-12.808,31.1,-70.729,-43.408,-10.132
276,50,3,7.366,-117.687,22.271,28.2,10.162,-104.704,16.408
277,50,42,13.608,-114.355,31.644,42.7,14.157,-100.649,25.387
278,50,65,15.312,-120.158,-8.632,40.2,16.052,-106.891,-6.138
279,50,66,24.221,-118.360,-1.339,30.0,20.743,-106.796,-1.283
280,50,67,31.375,-115.458,7.487,31.4,25.911,-104.227,5.415
281,50,68,36.181,-113.033,10.063,42.6,29.982,-101.570,7.095
282,51,3,13.817,-114.782,30.306,28.6,13.689,-101.195,24.092
283,51,42,19.117,-110.771,38.730,31.1,16.805,-96.552,30.883
284,51,43,26.858,-105.709,45.931,41.9,22.615,-91.683,39.879
285,51,66,31.095,-115.723,6.134,40.1,25.749,-104.385,4.567
286,51,67,36.642,-112.135,14.749,28.7,29.810,-100.563,11.014
287,51,68,41.835,-108.680,18.953,33.5,33.816,-96.965,15.420
288,51,69,46.189,-104.399,25.907,41.1,39.187,-91.126,22.553
289,52,42,31.249,-102.352,50.209,41.1,25.118,-89.246,42.903
290,52,43,39.348,-95.946,56.201,27.7,34.303,-82.187,46.754
291,52,44,48.366,-88.078,59.423,24.4,40.515,-76.835,49.315
292,52,45,57.675,-80.905,57.204,36.4,48.231,-70.615,48.736
293,52,68,52.729,-98.730,29.692,39.2,43.309,-86.919,26.160
294,52,69,56.327,-93.487,36.037,27.8,46.278,-83.128,30.917
295,53,44,57.252,-82.098,56.303,33.3,47.852,-71.267,48.198
296,53,45,66.088,-72.351,53.545,25.6,54.409,-64.784,46.008
297,53,46,73.997,-62.874,46.122,35.4,60.936,-58.118,41.071
298,53,54,70.607,-78.640,25.563,33.5,57.897,-71.434,22.773
299,53,68,61.271,-91.167,27.384,41.0,50.351,-80.888,25.002
300,53,69,64.234,-85.488,33.978,22.7,52.739,-76.357,30.673
301,54,45,73.315,-64.254,46.361,37.6,60.638,-58.704,41.239
302,54,46,78.956,-54.628,38.791,25.7,65.941,-50.157,34.904
303,54,47,83.027,-45.406,27.834,34.1,69.224,-43.245,26.902
304,54,54,76.060,-69.064,18.480,23.5,63.358,-61.204,15.962
305,54,55,79.144,-61.700,9.675,38.1,67.016,-56.908,8.529
306,54,69,71.253,-77.322,26.386,33.2,57.819,-71.037,24.230
307,55,46,82.597,-46.833,28.618,40.6,69.051,-44.387,27.402
308,55,47,84.879,-38.478,18.169,25.5,70.496,-37.975,16.757
309,55,48,85.938,-29.736,7.004,32.7,72.206,-30.061,6.322
310,55,54,79.144,-61.700,9.675,32.5,67.016,-56.908,8.529
311,55,55,82.262,-52.724,-0.987,23.4,70.279,-49.399,-0.426
312,56,47,85.938,-29.736,7.004,42.0,72.206,-30.061,6.322
313,56,48,85.772,-21.395,-5.560,25.7,71.514,-22.670,-7.766
314,56,49,84.667,-14.451,-15.320,30.8,71.449,-16.397,-14.588
315,56,55,84.393,-45.422,-12.185,31.3,70.920,-42.859,-9.802
316,57,48,84.667,-14.451,-15.320,41.1,71.449,-16.397,-14.588
317,57,49,83.078,-8.039,-26.565,25.4,68.514,-10.838,-22.744
318,57,50,82.000,-1.295,-36.866,30.0,65.820,-5.583,-29.059
319,58,49,82.000,-1.295,-36.866,41.7,65.820,-5.583,-29.059
320,58,50,81.901,4.792,-48.183,27.3,61.070,-0.284,-35.464
321,58,56,81.483,11.068,-58.151,31.9,56.965,4.966,-39.583
322,59,41,-82.172,-4.328,-38.164,41.5,-65.745,-6.941,-29.888
323,59,51,-82.103,3.156,-48.437,27.4,-61.267,-1.703,-35.522
324,59,57,-81.628,10.310,-59.899,32.5,-56.570,4.464,-40.140
325,60,30,-70.513,43.260,-22.149,35.7,-54.053,39.055,-15.228
326,60,31,-67.734,48.855,-28.754,26.7,-51.215,42.694,-17.503
327,60,51,-77.865,27.697,-38.616,30.2,-56.890,11.784,-33.212
328,60,57,-76.003,33.455,-50.176,27.2,-53.751,13.774,-37.413
329,60,59,-67.152,47.339,-38.609,15.3,-49.929,41.531,-20.055
330,61,11,69.651,45.106,-21.792,35.7,53.715,40.012,-15.239
331,61,33,67.019,50.285,-28.368,26.5,51.169,43.073,-17.267
332,61,50,77.394,28.983,-37.898,29.7,56.136,12.787,-33.143
333,61,56,75.244,34.824,-49.733,27.1,53.028,14.557,-37.412
334,61,58,66.658,48.085,-38.690,15.0,49.545,41.919,-20.099
335,62,18,-33.276,82.165,-6.892,27.5,-27.316,68.197,-5.461
336,62,22,-43.869,74.325,5.101,44.9,-38.501,63.950,3.441
337,62,23,-44.226,75.702,-8.102,16.5,-38.245,64.247,-7.845
338,62,30,-57.345,63.719,-10.811,42.9,-46.251,55.369,-9.361
339,62,31,-54.309,68.755,-17.457,30.2,-43.002,59.361,-12.022
340,62,59,-54.958,69.554,-27.842,38.7,-42.636,57.532,-15.377
341,63,3,-19.817,-111.896,35.517,40.0,-17.726,-99.580,26.850
342,63,34,-24.347,-107.086,44.350,31.4,-21.467,-92.841,37.994
343,63,35,-33.065,-101.511,50.632,30.4,-26.033,-88.695,43.043
344,63,36,-44.004,-94.853,53.681,39.6,-37.267,-82.128,45.172
345,63,62,-41.957,-108.349,20.154,34.7,-33.573,-96.885,16.318
346,63,63,-47.339,-104.037,24.260,31.4,-39.344,-91.357,21.064
347,63,64,-51.972,-99.203,30.134,29.8,-42.745,-87.396,26.165
348,64,3,20.312,-111.442,36.402,40.5,17.313,-98.941,28.128
349,64,42,24.569,-106.611,45.323,31.7,21.307,-92.459,39.006
350,64,43,33.663,-101.102,51.056,30.5,26.393,-88.315,43.398
351,64,44,43.820,-94.260,54.893,39.8,37.337,-81.583,45.895
352,64,67,41.956,-108.323,20.302,35.0,34.015,-96.678,15.932
353,64,68,46.910,-104.485,23.605,31.7,39.057,-91.576,20.334
354,64,69,51.588,-99.453,30.313,30.2,42.355,-87.523,26.766
355,65,52,-66.068,-88.934,-5.880,40.8,-52.847,-81.600,-3.709
356,65,61,-44.289,-107.842,-18.620,30.5,-36.271,-96.341,-13.274
357,65,62,-50.728,-104.457,-9.504,29.5,-41.862,-93.613,-6.944
358,65,63,-55.618,-100.676,-6.262,31.2,-45.083,-90.950,-4.918
359,66,52,-69.815,-83.218,2.759,19.1,-56.077,-75.777,3.151
360,66,53,-73.596,-76.296,-7.339,31.3,-61.259,-67.648,-5.818
361,66,61,-50.728,-104.457,-9.504,44.4,-41.862,-93.613,-6.944
362,66,62,-55.888,-100.523,0.159,31.1,-45.745,-90.537,-0.286
363,66,63,-60.242,-96.186,2.330,22.5,-49.389,-86.604,1.895
364,66,64,-64.188,-90.928,8.935,27.8,-52.569,-82.002,7.847
365,67,54,66.673,-88.122,-6.364,41.2,53.315,-80.517,-4.466
366,67,66,45.191,-107.294,-18.274,30.9,36.905,-95.934,-12.784
367,67,67,51.562,-103.845,-9.079,29.7,42.407,-93.199,-6.930
368,67,68,56.438,-100.020,-5.285,31.5,45.689,-90.279,-3.883
369,68,54,70.535,-82.060,2.550,19.4,56.543,-74.631,3.544
370,68,55,74.510,-74.342,-6.196,31.6,62.312,-66.037,-5.559
371,68,66,51.562,-103.845,-9.079,44.8,42.407,-93.199,-6.930
372,68,67,56.294,-100.211,-1.054,31.4,45.754,-90.742,-0.972
373,68,68,61.292,-95.006,3.407,22.7,50.283,-85.257,2.559
374,68,69,65.127,-89.690,9.356,28.0,53.438,-80.985,8.153
375,69,52,-73.584,-76.286,-9.543,37.4,-61.046,-67.635,-7.391
376,69,53,-76.986,-67.412,-18.646,22.6,-63.474,-60.727,-14.422
377,70,54,74.605,-74.081,-8.759,37.6,62.109,-66.108,-6.731
378,70,55,77.218,-66.678,-19.307,22.8,63.779,-60.090,-14.430
